0.908,0.784,0.531,0.363,0.366,0.344,0.333,0.308,0.297,0.3,0.304,0.337,0.377,0.392,0.44,0.447,0.458,0.48,0.513,0.535,0.586,0.586,0.604,0.634,0.615,0.582,0.564,0.52,0.491,0.491,0.469,0.454,0.451,0.465,0.451,0.432,0.425,0.41,0.392,0.37,0.374,0.366,0.319,0.311,0.326,0.311,0.315,0.322,0.344,0.344,0.333,0.304,0.308,0.282,0.271,0.286,0.264,0.275,0.282,0.267,0.278,0.289,0.293,0.289,0.289,0.289,0.293,0.282,0.267,0.256,0.253,0.216,0.223,0.238,0.216,0.267,0.418,0.582,0.615,0.623,0.762,0.864,1,0.908,0.674,0.315,0.154,0.121,0.0989,0.044,0.022,0.022,0.0293,0,0.011,0.0293,0.0147,0.022,0.044,0.0879,0,0,0,0,0,0,0,0,0,0,0,0,0,0,0,0,0,0,0,0,0,0,0,0,0,0,0,0,0,0,0,0,0,0,0,0,0,0,0,0,0,0,0,0,0,0,0,0,0,0,0,0,0,0,0,0,0,0,0,0,0,0,0,0,0,0,0,0,0,0,0,0,0,0,0,0,0,0,0,0,0,0,0,0,0,0.73,0.212,0,0.119,0.102,0.102,0.111,0.124,0.115,0.133,0.106,0.142,0.128,0.15,0.133,0.15,0.133,0.15,0.124,0.164,0.137,0.142,0.133,0.15,0.128,0.146,0.119,0.124,0.102,0.0929,0.0708,0.0796,0.0664,0.0708,0.0796,0.0929,0.0885,0.0841,0.0796,0.0885,0.0929,0.106,0.106,0.124,0.0973,0.124,0.119,0.142,0.133,0.155,0.146,0.168,0.159,0.164,0.168,0.168,0.164,0.181,0.186,0.199,0.177,0.204,0.19,0.204,0.195,0.212,0.204,0.212,0.212,0.226,0.239,0.283,0.305,0.394,0.451,0.434,0.372,0.358,0.274,0.217,0.181,0.186,0.186,0.186,0.195,0.226,0.181,0.226,0.668,1,0.46,0.19,0.204,0.208,0.195,0.208,0.195,0.186,0.195,0.212,0.208,0.217,0.208,0.226,0.217,0.235,0.226,0.235,0.23,0,0,0,0,0,0,0,0,0,0,0,0,0,0,0,0,0,0,0,0,0,0,0,0,0,0,0,0,0,0,0,0,0,0,0,0,0,0,0,0,0,0,0,0,0,0,0,0,0,0,0,0,0,0,0,0,0,0,0,0,0,0,0,0,0,0,0,0,0,0,0,0,0,0,0,0,1,0.91,0.681,0.473,0.229,0.0688,0,0.00417,0.0146,0.0542,0.102,0.123,0.15,0.169,0.173,0.171,0.169,0.165,0.156,0.152,0.148,0.148,0.146,0.146,0.142,0.142,0.148,0.158,0.169,0.179,0.192,0.206,0.221,0.24,0.258,0.275,0.287,0.308,0.321,0.331,0.342,0.346,0.352,0.354,0.346,0.346,0.348,0.342,0.342,0.344,0.344,0.342,0.338,0.342,0.36,0.358,0.358,0.352,0.356,0.358,0.344,0.304,0.287,0.271,0.267,0.26,0.262,0.256,0.269,0.26,0.265,0.269,0.271,0.271,0.275,0.273,0.279,0.281,0.281,0.283,0.277,0.26,0.319,0.481,0.615,0.748,0.904,0.971,0.935,0.74,0.546,0.315,0.127,0.0167,0.0208,0.0229,0.0646,0.102,0.123,0.158,0.177,0.173,0.175,0.169,0.165,0,0,0,0,0,0,0,0,0,0,0,0,0,0,0,0,0,0,0,0,0,0,0,0,0,0,0,0,0,0,0,0,0,0,0,0,0,0,0,0,0,0,0,0,0,0,0,0,0,0,0,0,0,0,0,0,0,0,0,0,0,0,0,0,0,0,0,0,0,0,0,0,0,0,0,0,0,0,0,0,0.57,0.399,0.238,0.148,0,0.00336,0.0403,0.0805,0.0705,0.0906,0.0805,0.104,0.094,0.117,0.0973,0.134,0.124,0.161,0.171,0.195,0.205,0.262,0.275,0.332,0.346,0.396,0.406,0.456,0.446,0.446,0.399,0.369,0.309,0.295,0.265,0.272,0.258,0.268,0.262,0.282,0.272,0.299,0.292,0.319,0.312,0.342,0.326,0.346,0.332,0.352,0.336,0.352,0.346,0.366,0.356,0.359,0.349,0.366,0.349,0.386,0.376,0.403,0.393,0.419,0.403,0.409,0.386,0.386,0.349,0.362,0.332,0.356,0.312,0.346,0.319,0.326,0.305,0.312,0.302,0.336,0.312,0.329,0.312,0.332,0.322,0.342,0.359,0.45,0.591,0.721,0.661,0.614,0.745,0.97,1,0.826,0.678,0.534,0.302,0.195,0.185,0.252,0.245,0.248,0.228,0.258,0.232,0.248,0.235,0.265,0.255,0.272,0.265,0.289,0.279,0,0,0,0,0,0,0,0,0,0,0,0,0,0,0,0,0,0,0,0,0,0,0,0,0,0,0,0,0,0,0,0,0,0,0,0,0,0,0,0,0,0,0,0,0,0,0,0,0,0,0,0,0,0,0,0,0,0,0,0,0,0,0,0,0,0,0,0,0,0,1,0.758,0.112,0,0.0806,0.0785,0.0661,0.0496,0.0475,0.0351,0.031,0.0289,0.0351,0.0269,0.0393,0.0351,0.0434,0.0475,0.0537,0.0537,0.0702,0.0723,0.0847,0.0971,0.122,0.132,0.169,0.196,0.215,0.236,0.254,0.264,0.285,0.273,0.267,0.24,0.215,0.174,0.157,0.124,0.122,0.107,0.105,0.0971,0.105,0.0992,0.105,0.0992,0.107,0.107,0.116,0.112,0.122,0.112,0.12,0.112,0.114,0.112,0.122,0.105,0.107,0.101,0.101,0.0868,0.093,0.0847,0.0826,0.0785,0.0785,0.0702,0.0764,0.0682,0.0785,0.0702,0.0682,0.0682,0.0744,0.0723,0.0909,0.101,0.107,0.105,0.122,0.116,0.11,0.0971,0.103,0.0971,0.0868,0.0723,0.0702,0.0537,0.0579,0.0496,0.0579,0.0517,0.0558,0.0537,0.0537,0,0.0124,0.188,0.682,0.975,0.616,0.0413,0.0124,0.0868,0.0661,0.0661,0.0517,0.0393,0.0434,0.0331,0.0413,0.0351,0.0455,0.0413,0.0455,0.0434,0.0496,0.0475,0.064,0.0682,0,0,0,0,0,0,0,0,0,0,0,0,0,0,0,0,0,0,0,0,0,0,0,0,0,0,0,0,0,0,0,0,0,0,0,0,0,0,0,0,0,0,0,0,0,0,0,0,0,0,0,0,0,0,0,0,0,0,0,0,0.0372,0.149,0.197,0.178,0.193,0.182,0.212,0.204,0.234,0.234,0.271,0.268,0.309,0.301,0.335,0.335,0.353,0.364,0.401,0.401,0.435,0.428,0.446,0.428,0.435,0.398,0.405,0.357,0.353,0.323,0.32,0.283,0.271,0.253,0.26,0.249,0.245,0.245,0.253,0.234,0.219,0.216,0.216,0.197,0.219,0.193,0.208,0.19,0.201,0.197,0.212,0.201,0.227,0.201,0.208,0.186,0.208,0.19,0.197,0.178,0.193,0.167,0.19,0.171,0.19,0.178,0.193,0.178,0.197,0.182,0.212,0.197,0.219,0.208,0.212,0.201,0.193,0.19,0.193,0.178,0.193,0.171,0.175,0.164,0.19,0.175,0.204,0.193,0.212,0.197,0.234,0.283,0.491,0.677,0.911,1,0.929,0.669,0.297,0.201,0.152,0.112,0.104,0.0669,0.0781,0.0669,0.0781,0.0706,0.0706,0.0595,0.0632,0.052,0,0,0,0,0,0,0,0,0,0,0,0,0,0,0,0,0,0,0,0,0,0,0,0,0,0,0,0,0,0,0,0,0,0,0,0,0,0,0,0,0,0,0,0,0,0,0,0,0,0,0,0,0,0,0,0,0,0,0,0,0,0,0,0,0,0,0,0,0,0,0,0,0.0412,0.112,0.146,0.202,0.322,0.363,0.414,0.427,0.485,0.511,0.521,0.549,0.599,0.607,0.64,0.665,0.73,0.781,0.852,0.897,0.953,0.97,1,0.993,0.985,0.944,0.899,0.824,0.753,0.712,0.667,0.603,0.577,0.597,0.67,0.596,0.513,0.423,0.277,0.12,0.0824,0.0225,0.0393,0.0543,0.0637,0.199,0.303,0.356,0,0,0,0,0,0,0,0,0,0,0,0,0,0,0,0,0,0,0,0,0,0,0,0,0,0,0,0,0,0,0,0,0,0,0,0,0,0,0,0,0,0,0,0,0,0,0,0,0,0,0,0,0,0,0,0,0,0,0,0,0,0,0,0,0,0,0,0,0,0,0,0,0,0,0,0,0,0,0,0,0,0,0,0,0,0,0,0,0,0,0,0,0,0,0,0,0,0,0,0,0,0,0,0,0,0,0,0,0,0,0,0,0,0,0,0,0,0,0,0,0,0,0,0,0,0,0,0,0,0,0,0,0,0,0,0,1,0.683,0.287,0.204,0.132,0.109,0.0943,0.0868,0.083,0.0868,0.083,0.0906,0.0755,0.0792,0.083,0.0717,0.0755,0.0755,0.0755,0.0755,0.0679,0.0679,0.0604,0.0491,0.0642,0.0566,0.0528,0.0264,0.0226,0.0113,0,0,0.00377,0.0189,0.0113,0.0302,0.0415,0.0604,0.0642,0.0868,0.083,0.0906,0.0981,0.102,0.113,0.113,0.113,0.132,0.121,0.132,0.136,0.128,0.125,0.132,0.136,0.14,0.14,0.136,0.143,0.143,0.14,0.151,0.143,0.136,0.143,0.14,0.143,0.147,0.147,0.143,0.14,0.136,0.143,0.14,0.147,0.14,0.147,0.147,0.132,0.155,0.147,0.147,0.155,0.162,0.151,0.166,0.143,0.155,0.158,0.17,0.155,0.158,0.158,0.158,0.162,0.166,0.162,0.17,0.147,0.155,0.151,0.166,0.151,0.158,0.162,0.166,0.158,0.166,0.174,0.181,0.17,0.177,0.192,0.208,0.226,0.242,0.242,0.219,0.223,0.204,0.158,0.147,0.151,0.155,0.17,0.177,0.189,0.208,0.268,0.596,0.883,0.649,0.185,0.143,0.155,0.143,0.155,0.155,0.147,0.143,0.14,0.151,0,0,0,0,0,0,0,0,0,0,0,0,0,0,0,0,0,0,0,0,0,0,0,0,0,0,0,0,0,0,0,0,0,0,0,0,0,0,0,0,0,0,0,1,0.902,0.761,0.611,0.466,0.386,0.364,0.346,0.314,0.305,0.309,0.305,0.291,0.286,0.284,0.271,0.255,0.264,0.261,0.252,0.241,0.227,0.218,0.2,0.173,0.164,0.161,0.155,0.141,0.145,0.155,0.168,0.175,0.193,0.223,0.252,0.255,0.277,0.311,0.323,0.323,0.327,0.343,0.346,0.339,0.343,0.348,0.346,0.336,0.336,0.339,0.341,0.343,0.357,0.359,0.329,0.309,0.361,0.455,0.457,0.366,0.205,0.114,0.0482,0,0.0411,0.102,0.146,0.188,0.246,0.302,0.352,0.382,0.387,0.398,0.407,0.407,0.411,0.421,0,0,0,0,0,0,0,0,0,0,0,0,0,0,0,0,0,0,0,0,0,0,0,0,0,0,0,0,0,0,0,0,0,0,0,0,0,0,0,0,0,0,0,0,0,0,0,0,0,0,0,0,0,0,0,0,0,0,0,0,0,0,0,0,0,0,0,0,0,0,0,0,0,0,0,0,0,0,0,0,0,0,0,0,0,0,0,0,0,0,0,0,0,0,0,0,0,0,0,0,0,0,0,0,0,0,0.984,0.963,0.663,0.211,0,0.0326,0.101,0.177,0.27,0.314,0.307,0.312,0.312,0.314,0.315,0.32,0.317,0.312,0.314,0.32,0.317,0.307,0.314,0.315,0.315,0.323,0.331,0.343,0.356,0.366,0.38,0.394,0.407,0.407,0.411,0.405,0.396,0.377,0.377,0.379,0.37,0.363,0.366,0.366,0.362,0.357,0.366,0.37,0.363,0.362,0.366,0.373,0.371,0.37,0.37,0.379,0.366,0.357,0.371,0.376,0.373,0.365,0.37,0.374,0.371,0.373,0.38,0.39,0.394,0.408,0.416,0.439,0.457,0.47,0.452,0.46,0.453,0.427,0.399,0.394,0.37,0.354,0.363,0.365,0.366,0.365,0.388,0.536,0.734,0.911,1,0.919,0.615,0.407,0.373,0.349,0.315,0.304,0.314,0.312,0.304,0.298,0.301,0.307,0.298,0,0,0,0,0,0,0,0,0,0,0,0,0,0,0,0,0,0,0,0,0,0,0,0,0,0,0,0,0,0,0,0,0,0,0,0,0,0,0,0,0,0,0,0,0,0,0,0,0,0,0,0,0,0,0,0,0,0,0,0,0,0,0,0,0,0,0,0,0,0,0,0,0,0,0,0,0,0,0,0,0,0.0073,0.0669,0.164,0.237,0.31,0.36,0.383,0.446,0.529,0.591,0.602,0.603,0.614,0.622,0.635,0.645,0.656,0.669,0.682,0.695,0.714,0.731,0.736,0.748,0.76,0.759,0.747,0.727,0.707,0.682,0.651,0.624,0.601,0.577,0.558,0.546,0.54,0.524,0.519,0.527,0.522,0.516,0.513,0.518,0.522,0.513,0.515,0.519,0.513,0.509,0.507,0.509,0.51,0.504,0.505,0.509,0.505,0.502,0.501,0.505,0.504,0.502,0.498,0.502,0.506,0.501,0.5,0.506,0.512,0.507,0.513,0.527,0.54,0.547,0.568,0.584,0.573,0.569,0.568,0.543,0.523,0.505,0.493,0.493,0.502,0.498,0.498,0.522,0.647,0.805,0.94,1,0.887,0.62,0.521,0.511,0.472,0.449,0.45,0.45,0.448,0,0,0,0,0,0,0,0,0,0,0,0,0,0,0,0,0,0,0,0,0,0,0,0,0,0,0,0,0,0,0,0,0,0,0,0,0,0,0,0,0,0,0,0,0,0,0,0,0,0,0,0,0,0,0,0,0,0,0,0,0,0,0,0,0,0,0,0,0,0,0,0,0,0,0,0,0,0,0,0,0,0,0,0.868,1,0.781,0.356,0.207,0.177,0.145,0.14,0.127,0.132,0.122,0.12,0.112,0.122,0.107,0.11,0.0902,0.0952,0.0785,0.0851,0.0768,0.0818,0.0785,0.0952,0.102,0.129,0.132,0.164,0.174,0.195,0.192,0.202,0.192,0.197,0.189,0.192,0.184,0.192,0.187,0.194,0.187,0.19,0.184,0.194,0.187,0.202,0.207,0.242,0.282,0.359,0.429,0.528,0.601,0.698,0.76,0.755,0.684,0.649,0.603,0.611,0.591,0.474,0.262,0.15,0.1,0.0885,0.0601,0.0551,0.0384,0.0401,0.0184,0.0167,0,0,0,0,0,0,0,0,0,0,0,0,0,0,0,0,0,0,0,0,0,0,0,0,0,0,0,0,0,0,0,0,0,0,0,0,0,0,0,0,0,0,0,0,0,0,0,0,0,0,0,0,0,0,0,0,0,0,0,0,0,0,0,0,0,0,0,0,0,0,0,0,0,0,0,0,0,0,0,0,0,0,0,0,0,0,0,0,0,0,0,0,0,0,0,0,0,0,0,0,0,0,0,0,0,0,0,0,0,0,0,0,0,0.833,1,0.889,0.434,0.265,0.166,0.159,0.132,0.125,0.122,0.115,0.103,0.105,0.105,0.108,0.103,0.0976,0.0906,0.0941,0.0836,0.0889,0.0854,0.0958,0.105,0.118,0.129,0.143,0.155,0.172,0.186,0.19,0.19,0.176,0.169,0.172,0.159,0.16,0.155,0.16,0.157,0.159,0.15,0.155,0.152,0.16,0.157,0.166,0.167,0.195,0.232,0.303,0.385,0.5,0.577,0.662,0.721,0.693,0.627,0.589,0.551,0.584,0.523,0.312,0.143,0.0871,0.0592,0.0523,0.0348,0.0226,0.0105,0.00871,0,0,0,0,0,0,0,0,0,0,0,0,0,0,0,0,0,0,0,0,0,0,0,0,0,0,0,0,0,0,0,0,0,0,0,0,0,0,0,0,0,0,0,0,0,0,0,0,0,0,0,0,0,0,0,0,0,0,0,0,0,0,0,0,0,0,0,0,0,0,0,0,0,0,0,0,0,0,0,0,0,0,0,0,0,0,0,0,0,0,0,0,0,0,0,0,0,0,0,0,0,0,0,0,0,0,0,0,0,0,0,0,0,0,0,0.0608,0.196,0.273,0.298,0.3,0.3,0.31,0.318,0.326,0.35,0.367,0.386,0.416,0.443,0.471,0.502,0.526,0.558,0.58,0.594,0.61,0.622,0.628,0.626,0.61,0.598,0.576,0.539,0.513,0.476,0.434,0.409,0.379,0.355,0.354,0.338,0.327,0.332,0.324,0.311,0.305,0.304,0.303,0.294,0.286,0.287,0.301,0.322,0.327,0.332,0.338,0.296,0.22,0.204,0.286,0.443,0.626,0.797,0.913,0.974,1,0.973,0.93,0.899,0.818,0.634,0.388,0.219,0.125,0.0595,0,0,0,0,0,0,0,0,0,0,0,0,0,0,0,0,0,0,0,0,0,0,0,0,0,0,0,0,0,0,0,0,0,0,0,0,0,0,0,0,0,0,0,0,0,0,0,0,0,0,0,0,0,0,0,0,0,0,0,0,0,0,0,0,0,0,0,0,0,0,0,0,0,0,0,0,0,0,0,0,0,0,0,0,0,0,0,0,0,0,0,0,0,0,0,0,0,0,0,0,0,0,0,0,0,0,0,0,0,0,0,0,0,0,0.736,0.644,0.534,0.419,0.299,0.19,0.119,0.0717,0.0425,0.0469,0.0673,0.11,0.198,0.312,0.344,0.385,0.436,0.493,0.54,0.592,0.621,0.644,0.646,0.66,0.663,0.668,0.671,0.684,0.69,0.697,0.703,0.716,0.725,0.735,0.747,0.76,0.764,0.789,0.802,0.823,0.84,0.862,0.874,0.89,0.895,0.9,0.903,0.908,0.908,0.902,0.877,0.855,0.818,0.791,0.751,0.722,0.682,0.659,0.628,0.611,0.59,0.577,0.559,0.558,0.549,0.549,0.548,0.549,0.537,0.543,0.539,0.542,0.534,0.546,0.536,0.536,0.533,0.529,0.524,0.527,0.521,0.531,0.53,0.533,0.523,0.53,0.523,0.53,0.52,0.515,0.51,0.517,0.51,0.514,0.514,0.518,0.512,0.518,0.515,0.524,0.52,0.527,0.517,0.523,0.514,0.523,0.517,0.512,0.512,0.511,0.507,0.515,0.508,0.521,0.536,0.578,0.761,1,0.852,0.789,0.697,0.608,0.488,0.369,0.24,0.135,0.0659,0.022,0,0.0293,0.0732,0.18,0.294,0.346,0.384,0.444,0.505,0.572,0.6,0.627,0,0,0,0,0,0,0,0,0,0,0,0,0,0,0,0,0,0,0,0,0,0,0,0,0,0,0,0,0,0,0,0,0,0,0,0,0,0,0,0,0,0,0,0,0,0.976,0.91,0.846,0.773,0.689,0.569,0.434,0.292,0.163,0.105,0.0827,0.0268,0,0.0326,0.155,0.274,0.326,0.37,0.403,0.435,0.48,0.518,0.558,0.611,0.661,0.685,0.703,0.725,0.737,0.75,0.768,0.793,0.814,0.831,0.846,0.871,0.893,0.909,0.914,0.915,0.908,0.896,0.882,0.858,0.834,0.806,0.764,0.738,0.704,0.675,0.648,0.633,0.619,0.618,0.633,0.64,0.646,0.645,0.624,0.624,0.62,0.603,0.598,0.583,0.562,0.551,0.538,0.54,0.529,0.506,0.502,0.508,0.505,0.504,0.503,0.503,0.495,0.502,0.499,0.495,0.495,0.494,0.497,0.491,0.492,0.495,0.487,0.488,0.492,0.488,0.489,0.484,0.489,0.494,0.496,0.491,0.496,0.491,0.501,0.508,0.524,0.675,1,0.952,0.912,0.853,0.809,0.745,0.657,0.553,0.435,0.317,0.227,0.189,0.148,0.0792,0.0373,0.0303,0.13,0.235,0.299,0.329,0.356,0.361,0.393,0,0,0,0,0,0,0,0,0,0,0,0,0,0,0,0,0,0,0,0,0,0,0,0,0,0,0,0,0,0,0,0,0,0,0,0,0,0,0,0,0,0,0,0,0,0,0,0,0,0,0,0,0,0,0,0,0,0,0,0,0.691,0.609,0.51,0.412,0.277,0.178,0.0997,0.0579,0.0305,0.0466,0.0611,0.124,0.222,0.302,0.326,0.384,0.436,0.503,0.539,0.582,0.59,0.606,0.601,0.614,0.613,0.627,0.625,0.638,0.641,0.662,0.67,0.69,0.691,0.707,0.722,0.746,0.762,0.793,0.809,0.826,0.833,0.849,0.838,0.844,0.826,0.812,0.791,0.768,0.725,0.695,0.653,0.632,0.6,0.585,0.559,0.551,0.534,0.529,0.521,0.524,0.505,0.511,0.503,0.51,0.502,0.511,0.503,0.503,0.5,0.503,0.495,0.502,0.495,0.503,0.487,0.495,0.49,0.495,0.486,0.482,0.476,0.481,0.477,0.489,0.481,0.486,0.479,0.482,0.479,0.486,0.481,0.487,0.477,0.477,0.473,0.481,0.474,0.481,0.476,0.481,0.477,0.482,0.482,0.486,0.49,0.523,0.667,1,0.868,0.794,0.703,0.606,0.495,0.394,0.262,0.158,0.0772,0.0273,0,0.0273,0.0595,0.151,0.249,0.299,0.33,0.384,0.441,0.523,0.556,0.577,0.577,0,0,0,0,0,0,0,0,0,0,0,0,0,0,0,0,0,0,0,0,0,0,0,0,0,0,0,0,0,0,0,0,0,0,0,0,0,0,0,0,0,0,0,0,0,0,0,0,0,0,0,0,0,0